# Results for "node" with Id # 1 at position: x: 0.499; y: 0.25; z: 0
# time DISPLACEMENT_X DISPLACEMENT_Y DISPLACEMENT_Z
0.1 0.00019492765806219917 -1.4382622876805807e-07 0.0
0.2 0.0006721215470009723 6.313027336959316e-08 0.0
0.3 0.0011957788014464034 6.057465542751052e-09 0.0
0.4 0.001731376743327058 -4.4018813620171084e-09 0.0
0.5 0.002153554006308253 2.2231198377151332e-08 0.0
0.6 0.002269301536597855 -1.783423176997851e-08 0.0
0.7 0.0028649218881855384 3.066986408710682e-08 0.0
0.8 0.005089769359184282 -2.5908607897064968e-08 0.0
0.9 0.008204348753006763 2.5519041067382396e-08 0.0
1 0.010810922003427459 -2.9697480381163306e-08 0.0
1.1 0.01382025489331694 2.4052889424496317e-08 0.0
1.2 0.017663188913306864 -3.347036658200385e-08 0.0
1.3 0.02093458036149968 1.70260581592741e-08 0.0
1.4 0.02420143808814344 -3.554713545897985e-08 0.0
1.5 0.02789220249312258 2.5684630118218598e-08 0.0
1.6 0.030769093210230164 -1.2852849640436752e-08 0.0
1.7 0.03351376916159761 5.612744325237752e-09 0.0
1.8 0.03659151213169988 -1.1260634434379171e-08 0.0
1.9 0.03975984913267639 2.3011910709075198e-08 0.0
2 0.043469510183986274 -6.232434032043814e-10 0.0
2.1 0.046492533002519695 5.1429728527416295e-09 0.0
2.2 0.04855114780546527 2.6123593005470273e-08 0.0
2.3 0.05062774425989905 -1.3429165826500105e-08 0.0
2.4 0.052289808466501005 -2.4344584428601812e-09 0.0
2.5 0.05322480711441943 -1.4730185098094051e-08 0.0
2.6 0.05361980413628799 1.763732286779122e-08 0.0
2.7 0.05406825923479304 -3.4926016472122695e-08 0.0
2.8 0.054202182460007256 2.1791841767808943e-08 0.0
2.9 0.053953037792685274 -5.890145493145136e-08 0.0
3 0.0545899875998244 2.5175776308833734e-09 0.0
3.1 0.055371373059402755 -3.331900687535231e-08 0.0
3.2 0.055624087513577176 -1.6526807764751403e-08 0.0
3.3 0.05588591815003978 -6.43876976379606e-08 0.0
3.4 0.056134378112937956 -5.476996432927059e-09 0.0
3.5 0.056479211198487055 -7.667000056289217e-08 0.0
3.6 0.05719145604369359 -3.5240148353363886e-08 0.0
3.7 0.057964962290639466 -4.7777426631534996e-08 0.0
3.8 0.058846976989600286 -2.9010042057669997e-08 0.0
3.9 0.060646493662800366 -5.115116181633519e-08 0.0
4 0.06261013726519775 -5.074186969823788e-08 0.0
4.1 0.06476127308489861 -3.141197021584802e-08 0.0
4.2 0.06788278450001468 -5.567824143172927e-08 0.0
4.3 0.07069820528367614 -2.5191860556819756e-08 0.0
4.4 0.07302071889326049 -4.836950635654866e-08 0.0
4.5 0.07558091190527595 -3.015439108139221e-08 0.0
4.6 0.07816407891402861 -4.68248436429993e-08 0.0
4.7 0.08055595871921668 7.91478987024838e-09 0.0
4.8 0.08279879685360766 -6.396555183185807e-08 0.0
4.9 0.08493196971584002 3.850830594415694e-08 0.0
5 0.08697372811343147 -3.3870197020660594e-08 0.0
5.1 0.08877671630249863 -6.859949219061017e-09 0.0
5.2 0.09040978251547635 -3.71822722116211e-08 0.0
5.3 0.09168935078815063 2.4006672530213054e-08 0.0
5.4 0.09239284181086677 -5.47677467017313e-08 0.0
5.5 0.09275600297184951 -1.0137133283267522e-08 0.0
5.6 0.09226356015705056 -3.5977713098554676e-08 0.0
5.7 0.09167921120698773 -4.3662641904442246e-08 0.0
5.8 0.09138710152790308 -4.629792107936091e-08 0.0
5.9 0.09031283358114893 -4.271983588758962e-08 0.0
6 0.08933563686192063 -6.160762454500113e-08 0.0
6.1 0.08875494749721337 -5.9403951190523446e-08 0.0
6.2 0.08785857776800106 -6.660373678659904e-08 0.0
6.3 0.08713335582644544 -9.791097939102058e-08 0.0
6.4 0.08662921873070104 -6.180057102670039e-08 0.0
6.5 0.08598172375951997 -9.89415145462163e-08 0.0
6.6 0.08543791868722064 -6.255646569224971e-08 0.0
6.7 0.08508269305886013 -1.306820511960087e-07 0.0
6.8 0.08498239962452234 -4.269960793602341e-08 0.0
6.9 0.08536025981601673 -1.0981891949158442e-07 0.0
7 0.08615066617247691 -6.648065232823906e-08 0.0
7.1 0.08701085845995143 -8.8337406850333e-08 0.0
7.2 0.088196452793866 -5.1469245711771074e-08 0.0
7.3 0.08982479151853265 -1.1004554466673206e-07 0.0
7.4 0.09135864910466684 -3.685863808557586e-08 0.0
7.5 0.09282310460505928 -8.530550033768932e-08 0.0
7.6 0.09430966296946981 -5.048372992908205e-08 0.0
7.7 0.095752113205476 -4.204818024827767e-08 0.0
7.8 0.09677891731769221 -6.205846653136342e-08 0.0
7.9 0.09785123401744991 -3.9215444526559296e-08 0.0
8 0.09910698706946294 -3.25412958839492e-08 0.0
8.1 0.09973817162051284 -2.8230558759674507e-08 0.0
8.2 0.10036371248621132 -5.564689593096465e-08 0.0
8.3 0.10072772143559354 -1.4553302239462661e-08 0.0
8.4 0.10048118401660848 -6.322200792450113e-08 0.0
8.5 0.10029822993136961 -3.6521913008196695e-08 0.0
8.6 0.09948181286596805 -7.617059778573601e-08 0.0
8.7 0.09817643365046742 -2.3882519878475537e-08 0.0
8.8 0.09697897113959932 -1.0557450223538382e-07 0.0
8.9 0.09538276849176376 -4.445963251828698e-08 0.0
9 0.09368131571579166 -1.048428649577591e-07 0.0
9.1 0.09219476530800923 -5.6605153058715314e-08 0.0
9.2 0.09073831263964566 -1.1227743592240426e-07 0.0
9.3 0.08920863246706431 -6.138864654040254e-08 0.0
9.4 0.08776909593006543 -1.1963021615216403e-07 0.0
9.5 0.08660338409246117 -8.705084142427214e-08 0.0
9.6 0.08555804325081208 -9.256942108391867e-08 0.0
9.7 0.08459956768482597 -1.0928841738539062e-07 0.0
9.8 0.08399491935538819 -9.165214732892192e-08 0.0
9.9 0.08363357377464872 -8.503200165923994e-08 0.0
10 0.08349870235938829 -9.89885518841485e-08 0.0
10.1 0.08390840293293127 -9.419970345187711e-08 0.0
10.2 0.0844386182093754 -5.96543567947474e-08 0.0
10.3 0.08522921423779208 -1.0838031284756125e-07 0.0
10.4 0.0863529291715972 -4.19664902682819e-08 0.0
10.5 0.0872767328907901 -9.939636480293061e-08 0.0
10.6 0.08826759287968894 -3.381378506391755e-08 0.0
10.7 0.08948477186878603 -8.782839947762567e-08 0.0
10.8 0.09040883156284647 -2.4797691313272593e-08 0.0
10.9 0.09110220324677613 -6.780670005849773e-08 0.0
11 0.0919802489296623 -2.5362369669620958e-08 0.0
11.1 0.09247138888973186 -5.5287339629694646e-08 0.0
11.2 0.09274603377862853 -1.9811478446673145e-08 0.0
11.3 0.09301470652870987 -6.650943950970285e-08 0.0
11.4 0.09273262555019572 -1.432720002568981e-08 0.0
11.5 0.09230674834433729 -5.9288338111791617e-08 0.0
11.6 0.09149919302171304 -5.18075459798818e-08 0.0
11.7 0.09031065909217931 -4.894963123547284e-08 0.0
